412,159,564,298,196,223,196,205,x
418,172,449,285,169,214,191,205,x
412,137,390,261,162,211,186,203,x
352,116,336,256,155,218,235,152,x
313,119,314,178,158,143,228,128,x
98,110,292,138,154,115,214,62,x
68,75,289,127,157,113,206,42,x
68,69,291,137,155,110,203,41,x
58,72,246,139,166,93,127,40,x
55,62,219,143,166,61,70,38,x
56,113,200,139,167,61,66,37,x
46,109,202,137,163,58,67,34,x
47,109,199,126,160,57,69,33,x
45,110,179,133,161,60,66,34,x
45,107,210,136,164,55,57,33,x
44,53,210,140,163,53,47,33,x
50,61,194,149,165,51,46,33,x
48,60,167,156,167,56,51,34,x
51,65,148,140,166,52,50,31,x
51,66,120,148,165,52,48,33,x
50,68,125,155,168,51,49,36,x
44,66,123,158,178,50,47,35,x
45,129,124,170,181,47,42,37,x
43,127,120,167,170,47,43,38,x
48,136,100,159,167,48,42,36,x
53,135,83,161,169,51,42,37,x
55,136,86,191,164,51,41,38,x
61,88,87,212,167,52,38,38,x
69,91,124,210,170,51,37,40,x
77,82,197,237,190,55,41,46,x
134,94,202,229,195,55,43,56,x
140,130,235,218,190,58,47,62,x
157,156,250,199,206,63,80,78,x
172,212,299,242,209,69,117,107,x
196,315,268,226,204,83,202,147,x
244,341,378,302,217,101,241,162,x
353,453,385,335,257,144,260,237,x
410,535,414,398,332,180,480,317,x
517,672,476,597,612,250,607,659,x
683,808,665,792,801,322,709,754,x
906,992,733,910,894,358,780,831,x
1086,1127,811,1087,968,373,839,987,FIST
1222,1278,856,1271,1119,432,887,1243,FIST
1316,1298,1003,1363,1122,440,930,1214,FIST
1448,1463,1045,1541,1180,502,991,1263,FIST
1516,1559,1114,1568,1138,534,1067,1299,FIST
1536,1659,1097,1556,1111,564,1147,1274,FIST
1638,1693,1088,1508,995,554,1116,1284,FIST
1706,1775,1032,1637,1150,608,1171,1287,FIST
1625,1745,886,1485,1077,572,1188,1260,FIST
1530,1621,725,1401,1062,559,1215,1283,FIST
1375,1408,660,1317,1021,539,1180,1211,FIST
1119,1245,668,1283,998,531,1141,913,x
826,1016,463,955,631,430,983,747,x
619,660,447,771,389,373,827,604,x
408,467,412,717,337,329,612,296,x
385,402,468,632,320,285,453,133,x
326,170,384,387,158,207,336,96,x
319,158,430,144,150,196,320,93,x
310,136,457,154,155,159,255,77,x
171,116,469,149,164,101,207,58,x
127,107,415,139,162,82,165,49,x
114,97,389,135,159,90,192,39,x
112,144,331,113,150,93,193,41,x
111,193,284,113,153,93,187,45,x
97,194,232,132,147,91,157,42,x
71,218,206,132,146,75,112,42,x
62,219,225,134,148,57,64,43,x
59,178,202,129,145,52,60,38,x
46,117,194,116,138,48,59,33,x
45,114,197,109,136,45,60,32,x
47,69,205,102,136,43,62,32,x
46,72,245,103,144,39,48,32,x
47,74,263,107,146,40,58,33,x
47,74,257,111,149,41,58,33,x
49,76,232,103,153,50,65,38,x
46,67,224,105,159,64,80,38,x
48,56,143,104,151,65,81,39,x
46,68,134,99,150,63,73,39,x
48,72,170,96,151,62,71,39,x
46,69,175,90,145,54,64,35,x
45,66,167,91,143,39,53,35,x
44,120,169,93,142,39,52,34,x
47,114,152,101,145,45,57,33,x
63,114,164,100,140,53,61,35,x
98,114,184,101,144,62,70,36,x
98,114,226,99,141,65,84,38,x
105,57,243,96,140,75,120,44,x
105,52,241,93,134,76,126,44,x
95,49,204,95,132,71,127,43,x
60,50,208,93,129,65,123,42,x
58,49,192,96,131,62,111,41,x
44,46,230,111,128,53,73,34,x
47,50,233,112,131,53,67,35,x
62,50,240,111,131,65,86,38,x
108,49,231,114,131,67,92,40,x
110,50,252,112,127,66,92,41,x
112,59,214,106,134,63,88,41,x
111,58,218,104,133,59,86,40,x
104,58,209,108,134,48,65,37,x
53,61,192,112,134,46,55,35,x
74,122,188,157,141,52,59,46,x
96,136,218,165,145,55,66,61,x
111,144,245,188,148,56,108,69,x
124,159,257,187,150,55,128,80,x
147,190,263,205,160,71,141,106,x
166,213,271,172,172,76,158,158,x
258,292,276,218,172,81,190,225,x
298,326,262,248,181,87,189,305,x
383,435,276,327,364,137,217,367,x
561,647,388,449,501,170,326,640,x
825,933,433,545,582,198,445,779,x
1082,1145,516,628,632,266,590,864,x
1237,1364,610,836,753,300,682,1051,x
1484,1614,860,930,810,325,814,1112,FIST
1530,1715,912,1058,899,357,845,1115,FIST
1597,1784,959,1233,937,417,930,1260,FIST
1711,1873,1044,1443,1087,517,939,1561,FIST
1695,1831,1090,1501,1210,581,1055,1563,FIST
1511,1720,946,1498,1175,602,1036,1585,FIST
1578,1724,866,1504,1134,609,1084,1711,FIST
1477,1631,786,1390,1072,562,1078,1647,FIST
1206,1417,624,1147,900,457,1022,1321,FIST
1103,1429,463,985,670,362,855,1170,FIST
1050,1274,385,896,591,289,766,1074,FIST
769,1023,508,660,419,212,624,680,x
616,804,618,523,387,220,437,353,x
573,706,610,465,355,184,406,316,x
542,232,608,261,183,164,429,272,x
533,197,677,200,175,159,415,220,x
553,155,595,271,168,156,404,213,x
572,146,489,351,164,133,367,240,x
443,130,464,343,158,135,325,178,x
376,96,438,338,157,111,210,163,x
356,75,302,327,154,95,178,152,x
306,72,259,259,152,86,153,142,x
101,62,211,118,156,83,117,49,x
75,52,201,136,155,51,82,44,x
62,55,203,149,163,46,73,39,x
46,53,190,152,170,45,41,35,x
47,55,202,177,197,52,38,34,x
49,60,212,182,197,53,47,35,x
47,60,225,168,196,54,49,34,x
46,58,216,159,195,55,48,36,x
48,56,221,185,193,56,47,36,x
50,63,206,179,188,55,47,36,x
49,59,206,189,214,59,41,36,x
49,67,191,206,221,60,38,37,x
50,67,178,221,235,61,38,36,x
48,73,176,202,240,64,39,36,x
44,64,163,197,237,63,37,37,x
44,72,147,199,215,61,34,37,x
45,72,154,213,227,63,38,37,x
45,83,177,213,217,61,37,38,x
48,83,179,217,208,58,37,38,x
50,89,193,219,195,55,38,43,x
55,89,233,227,210,56,39,44,x
58,88,231,220,223,63,39,44,x
58,78,239,201,214,64,42,45,x
74,80,231,206,214,65,44,45,x
80,81,297,205,234,73,45,43,x
99,97,311,212,233,74,49,49,x
114,107,309,225,220,71,49,52,x
147,160,311,256,240,71,50,57,x
164,255,316,245,245,76,56,72,x
176,266,252,259,235,78,60,86,x
185,310,243,269,249,89,82,130,x
386,499,364,315,260,106,157,231,x
450,626,378,448,325,133,192,407,x
573,774,395,526,374,151,313,541,x
816,964,481,709,606,332,560,670,x
1086,1205,653,939,791,399,734,810,FIST
1279,1339,872,1035,923,494,883,970,FIST
1455,1469,1023,1064,986,536,1048,1063,FIST
1593,1593,1208,1118,1013,569,1111,1332,FIST
1592,1667,1224,1274,1022,574,1164,1440,FIST
1567,1639,1158,1237,1049,635,1213,1575,FIST
1490,1695,1022,1331,982,587,1152,1588,FIST
1423,1641,877,1321,910,586,1127,1666,FIST
1323,1610,594,1332,863,593,1161,1531,FIST
1326,1550,495,1184,745,534,1103,1391,FIST
1154,1409,457,1095,486,405,949,1148,FIST
1008,1150,318,873,368,374,917,978,x
840,996,261,782,327,316,774,635,x
686,689,264,623,310,227,620,273,x
371,307,348,385,196,156,436,153,x
353,243,416,220,174,145,404,140,x
371,212,446,168,164,125,339,139,x
387,187,495,184,161,118,326,133,x
370,174,534,193,160,121,256,179,x
362,157,517,201,154,124,245,185,x
365,142,457,198,151,125,245,184,x
316,123,435,158,149,124,244,181,x
229,109,420,131,143,95,190,177,x
139,92,426,121,144,73,123,69,x
99,78,378,101,142,53,94,40,x
74,91,369,91,140,48,94,39,x
59,90,355,96,134,47,57,38,x
58,88,316,117,137,48,64,38,x
48,89,256,163,133,46,63,36,x
52,88,267,177,148,49,61,38,x
49,70,266,178,154,50,53,37,x
53,77,262,186,162,47,48,40,x
53,89,252,194,169,49,36,41,x
52,85,228,157,170,49,38,40,x
49,81,205,149,164,47,37,38,x
50,84,181,165,174,47,38,37,x
50,89,189,204,180,50,38,34,x
83,114,207,250,217,50,40,36,x
84,117,192,251,217,52,41,35,x
91,118,206,254,220,53,42,37,x
99,132,218,264,218,54,43,41,x
109,129,205,240,220,55,44,46,x
101,105,176,190,180,54,44,50,x
119,132,189,216,181,53,41,55,x
120,148,223,215,180,55,40,58,x
127,153,233,194,175,54,40,59,x
178,209,242,184,163,57,56,79,x
206,280,249,212,171,67,70,94,x
226,342,305,203,188,72,99,106,x
350,531,268,229,209,78,169,166,x
458,662,269,355,274,103,244,256,x
653,877,291,507,344,140,404,303,x
839,1062,355,626,416,172,598,465,x
902,1116,336,868,485,209,704,805,x
964,1230,553,1090,670,278,840,949,x
1004,1320,725,1231,760,348,1000,1129,x
994,1415,907,1278,773,377,1074,1295,FIST
967,1410,955,1419,925,468,1046,1374,FIST
1106,1526,1020,1431,984,521,1085,1358,FIST
1300,1584,956,1359,921,546,1163,1337,FIST
1365,1555,864,1401,947,540,1095,1394,FIST
1324,1460,668,1371,947,525,1075,1276,FIST
1243,1386,566,1207,777,447,1035,1156,FIST
1074,1209,418,1035,657,373,945,974,x
719,929,334,909,574,289,729,863,x
441,764,232,554,346,212,652,418,x
337,514,199,376,244,185,475,240,x
299,316,197,185,199,166,422,124,x
275,240,255,118,176,149,366,103,x
240,207,335,115,181,128,303,76,x
196,161,374,118,181,116,172,65,x
136,155,428,137,168,97,128,61,x
154,131,461,130,167,76,140,50,x
167,127,450,131,174,90,193,65,x
184,111,423,162,169,97,215,70,x
201,95,396,178,165,97,216,72,x
191,77,348,163,166,97,209,71,x
165,73,295,167,161,86,189,68,x
134,70,269,170,154,63,126,52,x
97,70,221,147,151,47,74,43,x
84,68,240,137,150,49,71,39,x
127,69,228,137,146,62,85,44,x
127,68,233,132,148,65,95,45,x
127,69,282,137,144,63,94,44,x
127,66,295,125,140,65,95,44,x
105,65,289,114,135,61,84,47,x
47,65,291,130,155,54,66,41,x
47,64,289,136,183,56,44,41,x
45,81,226,147,211,64,44,40,x
47,95,225,171,216,65,43,40,x
48,93,192,187,218,65,43,37,x
51,98,186,172,212,62,42,37,x
52,111,186,178,202,62,40,32,x
68,109,168,159,170,55,41,35,x
81,107,165,157,175,56,42,40,x
98,124,201,145,175,58,42,39,x
99,123,213,157,180,58,44,43,x
103,114,216,149,171,56,46,46,x
105,130,231,167,174,55,48,52,x
106,220,217,161,167,57,52,56,x
120,253,186,163,183,57,54,63,x
129,285,180,169,186,57,55,88,x
176,332,186,188,198,59,69,125,x
290,421,183,196,228,79,119,197,x
359,418,190,279,270,91,152,309,x
441,551,245,447,442,157,229,386,x
561,883,260,549,556,184,396,437,x
740,1044,272,685,651,224,536,496,x
850,1158,308,854,711,242,677,768,x
1033,1355,389,969,815,313,748,932,x
1125,1482,530,1060,875,322,783,1069,FIST
1200,1432,632,1065,846,338,759,1159,FIST
1139,1363,645,1046,795,339,705,1247,FIST
1210,1482,662,1047,821,362,615,1280,FIST
1088,1342,671,1008,738,309,524,1158,FIST
992,1234,551,917,586,275,471,1023,x
993,1256,551,1046,570,244,450,928,x
944,1217,542,987,536,237,497,793,x
711,919,510,840,391,194,484,473,x
629,846,453,730,317,193,497,431,x
577,699,476,631,271,189,469,391,x
234,297,355,171,160,183,442,304,x
242,202,374,114,157,149,339,223,x
229,150,392,109,159,122,268,76,x
240,139,485,116,160,106,235,74,x
262,132,468,145,162,118,243,131,x
225,120,447,149,158,109,221,126,x
201,113,438,159,160,100,217,123,x
195,87,506,161,153,94,214,118,x
186,105,537,173,148,86,210,119,x
155,106,577,152,138,118,255,68,x
150,102,595,141,142,124,231,69,x
131,104,595,152,138,119,196,67,x
122,96,520,177,143,115,181,65,x
124,69,388,186,149,115,178,62,x
90,62,341,187,154,57,55,39,x
91,66,298,191,154,45,48,33,x
82,61,269,192,154,46,51,32,x
75,62,250,168,157,50,53,30,x
47,64,227,135,148,50,53,30,x
43,65,186,138,146,48,50,32,x
42,62,238,147,142,51,44,32,x
41,59,232,137,138,49,38,33,x
43,59,261,150,132,46,39,36,x
44,58,262,166,150,47,38,37,x
48,55,247,192,164,49,39,36,x
54,63,187,204,182,52,38,35,x
72,101,180,212,187,53,40,40,x
74,111,144,225,193,56,39,40,x
79,118,155,215,179,54,41,42,x
85,130,186,204,168,54,45,50,x
97,165,187,195,158,51,45,57,x
117,198,193,204,173,64,52,70,x
154,240,278,246,224,81,71,99,x
198,306,323,263,240,86,131,119,x
231,387,318,252,243,90,210,175,x
46,68,225,137,176,63,66,38,x
47,65,210,134,176,52,48,37,x
48,68,193,143,178,51,36,38,x
49,69,180,160,188,52,35,38,x
46,65,143,152,188,57,36,37,x
47,66,136,150,185,58,38,36,x
44,68,136,155,190,59,39,35,x
40,65,144,159,188,58,38,37,x
39,64,155,208,195,64,38,35,x
72,85,155,245,237,66,40,38,x
90,98,149,235,228,65,39,41,x
112,142,166,236,228,67,42,48,x
131,173,252,238,226,69,52,60,x
154,237,267,262,240,76,95,86,x
209,304,286,252,202,77,132,157,x
304,440,323,373,325,112,203,250,x
459,567,329,503,375,148,445,356,x
710,713,285,577,417,181,542,490,x
886,876,331,808,617,225,768,582,x
970,968,354,947,676,253,919,650,x
1054,1099,410,1023,662,274,1104,959,x
1118,1170,450,1068,711,317,1129,957,x
1089,1206,517,1083,728,346,1141,992,x
972,1142,495,1062,603,339,1042,1029,x
964,1181,528,1000,584,358,989,1200,x
930,1132,512,1070,633,364,840,1034,x
868,1159,511,1054,580,335,832,1103,x
751,1073,486,1219,699,336,842,1165,x
767,1050,511,1242,743,327,864,1130,x
807,1010,522,1233,735,306,856,1153,x
777,974,501,1124,705,305,925,1141,x
837,892,501,1109,711,307,966,1078,x
872,970,463,960,590,256,894,922,x
845,941,422,758,487,243,840,869,x
712,825,325,685,434,246,813,474,x
666,700,293,597,357,206,676,302,x
535,536,433,464,282,186,468,151,x
444,238,492,177,168,185,486,113,x
435,167,591,113,144,178,454,199,x
439,139,631,186,164,136,358,242,x
456,138,677,276,167,141,339,308,x
346,121,600,285,169,121,304,311,x
331,106,597,286,161,115,277,309,x
308,94,564,286,162,115,278,259,x
263,84,543,256,147,104,244,212,x
99,75,489,157,145,74,163,75,x
96,69,462,147,143,57,118,44,x
82,61,426,158,151,51,72,37,x
81,70,441,172,146,52,68,35,x
79,71,443,174,147,53,75,37,x
79,72,438,173,148,53,73,38,x
67,72,416,161,146,49,68,42,x
60,76,400,157,141,53,67,44,x
59,66,287,134,135,50,66,45,x
59,66,272,117,134,46,55,44,x
60,68,258,119,135,45,58,44,x
48,71,260,136,159,47,51,38,x
46,64,222,140,168,43,52,37,x
47,63,229,162,170,43,49,35,x
47,60,200,160,165,45,51,34,x
47,60,198,160,166,46,43,34,x
49,57,201,151,151,49,43,35,x
49,56,203,141,143,49,37,37,x
53,59,186,118,141,50,52,42,x
86,112,191,121,142,54,98,61,x
101,116,238,137,127,56,104,64,x
116,155,291,145,123,55,165,73,x
174,195,303,143,130,64,202,103,x
216,292,321,151,141,83,288,362,x
354,420,392,186,169,102,392,444,x
432,529,452,264,288,136,438,596,x
577,808,470,304,310,152,566,737,x
671,995,501,382,359,194,699,938,x
876,1126,561,580,520,222,723,1012,x
954,1241,585,750,596,259,783,1154,x
1034,1297,578,796,639,309,864,1214,x
1119,1321,720,818,668,329,1062,1320,x
1157,1235,799,909,681,336,1197,1410,FIST
1253,1372,838,931,652,349,1309,1449,FIST
1348,1403,857,979,633,353,1437,1516,FIST
1351,1476,870,1195,824,390,1462,1507,FIST
1362,1425,800,1205,825,421,1384,1563,FIST
1367,1550,792,1270,856,419,1234,1574,FIST
1182,1394,735,1280,837,409,1161,1574,FIST
1100,1369,666,1201,814,396,938,1514,FIST
1012,1211,676,934,529,313,857,1426,FIST
827,1087,601,888,480,251,681,1198,x
703,828,495,645,357,222,612,914,x
716,683,468,397,234,187,481,682,x
501,278,491,152,156,159,472,283,x
466,169,479,110,150,157,357,282,x
462,117,549,111,141,132,317,244,x
420,111,656,258,153,124,327,202,x
289,99,690,283,156,134,281,186,x
255,103,662,289,158,128,244,179,x
233,100,659,298,158,111,232,127,x
196,94,605,295,159,109,224,97,x
186,97,537,241,149,106,221,77,x
157,92,558,226,148,96,210,115,x
151,83,553,229,151,90,153,114,x
145,85,484,224,151,85,146,112,x
144,86,464,228,150,83,146,111,x
121,71,380,179,156,76,100,100,x
98,64,290,168,154,65,72,43,x
94,65,287,155,152,55,73,38,x
96,58,277,150,157,55,74,39,x
95,57,269,140,157,56,72,39,x
96,58,268,121,147,51,64,37,x
91,75,243,114,143,46,68,36,x
52,73,255,115,143,50,65,36,x
48,72,253,109,137,51,63,37,x
51,74,256,104,133,50,60,37,x
60,86,232,106,138,51,62,50,x
81,88,168,113,146,54,75,93,x
123,99,205,132,159,52,95,220,x
130,211,271,150,161,52,96,228,x
172,260,305,154,163,58,204,245,x
221,346,332,163,157,61,218,255,x
305,439,355,195,179,80,297,327,x
493,628,359,244,238,115,375,328,x
641,731,322,324,332,174,480,484,x
770,941,351,520,429,221,783,861,x
929,1075,475,907,655,277,1034,1131,x
1020,1248,560,993,742,320,1070,1206,x
1044,1398,588,1054,773,347,1080,1233,FIST
1091,1420,674,1115,795,364,1086,1343,FIST
1140,1365,707,1073,779,372,1071,1359,FIST
1238,1345,749,858,645,373,1080,1382,FIST
1373,1347,744,1022,783,421,1136,1526,FIST
1465,1272,781,1045,830,430,1221,1645,FIST
1481,1428,752,1005,809,410,1228,1655,FIST
1467,1451,728,1102,830,413,1152,1597,FIST
1315,1451,601,1071,819,385,927,1434,FIST
1093,1302,545,871,599,298,799,1255,FIST
877,1150,426,753,465,299,708,1054,x
714,836,331,685,405,287,661,847,x
513,644,285,437,285,247,501,608,x
412,389,277,348,218,232,488,517,x
368,284,213,162,180,216,465,322,x
301,229,221,129,165,117,277,297,x
182,145,250,118,157,90,146,181,x
131,131,292,112,151,49,85,107,x
139,108,366,146,149,73,161,51,x
273,119,541,195,150,127,238,116,x
303,112,615,239,138,162,283,172,x
316,120,625,262,137,183,320,176,x
327,134,641,269,140,183,324,177,x
320,130,703,275,138,177,294,176,x
195,113,597,296,138,144,231,138,x
172,108,560,282,141,103,176,58,x
150,92,563,267,144,61,98,49,x
123,71,524,262,148,60,77,53,x
109,67,371,231,142,50,75,49,x
109,70,346,165,134,46,74,51,x
58,66,296,141,138,48,68,47,x
48,67,237,134,137,46,56,46,x
44,66,192,159,134,46,46,38,x
52,83,198,177,133,47,42,39,x
50,85,280,182,145,50,42,36,x
53,95,273,170,147,45,41,35,x
56,100,273,172,151,48,37,37,x
65,108,271,171,152,49,39,37,x
61,96,263,182,166,51,41,36,x
62,94,167,193,165,51,46,39,x
67,92,163,193,160,54,47,45,x
179,178,257,209,165,57,55,61,x
198,227,307,204,167,59,69,122,x
278,333,411,209,161,75,126,234,x
576,671,459,309,200,124,332,402,x
757,1091,508,588,581,234,399,630,FIST
938,1310,525,722,730,293,587,907,FIST
1103,1443,575,825,881,353,786,1013,FIST
1258,1651,610,866,921,385,880,1316,FIST
1304,1702,669,1032,1037,424,895,1361,FIST
1315,1602,839,1004,953,399,892,1413,FIST
1403,1682,918,994,906,420,880,1400,FIST
1440,1786,888,1029,836,413,849,1572,FIST
1515,1798,953,1114,931,464,826,1535,FIST
1484,1782,922,1055,908,450,778,1590,FIST
1459,1807,802,977,855,452,821,1496,FIST
1316,1647,681,896,795,409,775,1446,FIST
1138,1427,664,753,716,372,634,1189,x
828,1140,452,556,524,269,542,896,x
651,923,376,246,279,216,520,639,x
497,595,258,172,216,178,460,568,x
308,314,270,132,181,151,420,282,x
299,178,313,158,171,148,399,179,x
268,135,339,159,164,131,372,106,x
249,120,364,215,151,121,348,79,x
230,118,357,274,142,102,290,72,x
188,106,346,288,150,98,184,75,x
216,102,350,277,157,88,171,84,x
225,114,352,290,166,92,181,96,x
230,117,404,267,161,103,173,102,x
203,123,399,227,162,95,126,101,x
190,113,414,229,159,87,101,90,x
146,148,385,239,154,85,95,75,x
146,185,394,232,154,79,73,61,x
119,225,327,212,155,66,64,50,x
125,281,343,212,149,68,57,48,x
132,290,315,209,147,67,60,48,x
127,286,349,220,146,64,57,49,x
119,298,370,210,137,63,60,49,x
118,278,373,218,142,67,60,52,x
121,250,346,191,146,65,60,52,x
117,253,340,195,149,65,56,53,x
100,275,321,174,149,65,57,53,x
93,269,282,180,151,65,53,54,x
98,271,269,181,161,68,51,52,x
97,279,303,195,165,78,65,56,x
118,310,335,218,164,82,68,56,x
133,305,333,226,170,84,64,57,x
136,323,337,229,174,89,66,72,x
168,338,377,232,173,88,72,90,x
204,437,352,236,189,86,67,131,x
410,590,345,244,202,106,153,276,x
507,721,332,270,255,132,222,444,x
611,799,384,376,407,208,353,616,FIST
799,1045,389,539,554,250,464,879,FIST
907,1247,513,712,749,336,663,1139,FIST
949,1315,566,821,870,412,700,1233,FIST
1098,1510,714,946,975,446,707,1281,FIST
1176,1535,794,962,1018,456,679,1259,FIST
1230,1572,836,927,967,468,699,1235,FIST
1249,1454,791,833,865,422,544,1059,FIST
1267,1567,794,826,824,362,579,1014,FIST
1245,1502,733,813,786,332,573,981,FIST
1170,1538,651,788,715,290,564,995,x
1070,1412,614,758,693,242,455,886,x
972,1399,588,724,658,246,431,900,x
845,1150,554,602,571,234,318,811,x
623,1087,458,555,602,228,278,738,x
533,957,384,498,534,210,244,627,x
330,841,300,458,527,200,305,512,x
296,751,297,450,503,184,387,338,x
281,714,276,434,479,170,378,276,x
258,359,313,212,201,133,376,118,x
243,277,342,227,189,133,380,102,x
232,265,350,227,179,135,324,93,x
179,239,342,236,188,115,193,72,x
155,248,315,242,187,109,152,68,x
151,269,318,234,172,102,136,57,x
158,246,309,229,173,93,93,54,x
149,274,339,229,171,80,92,56,x
157,339,360,220,157,73,101,55,x
141,333,362,214,151,62,88,53,x
126,288,332,175,153,59,89,51,x
128,295,326,142,153,61,88,56,x
135,316,332,214,161,68,85,63,x
172,259,327,234,155,65,69,58,x
171,270,310,232,158,63,69,57,x
171,301,313,231,156,62,62,57,x
154,292,298,231,152,65,60,53,x
148,245,247,157,148,57,46,41,x
81,309,296,141,150,56,46,42,x
80,295,308,146,153,61,48,42,x
103,295,312,144,149,61,50,49,x
112,301,313,142,150,55,47,50,x
115,314,319,158,145,56,50,53,x
121,271,281,157,142,57,49,58,x
127,286,390,169,141,54,53,60,x
164,324,383,195,148,53,55,70,x
251,399,392,212,144,60,72,131,x
420,607,456,287,156,82,149,226,x
568,772,477,370,308,116,335,506,x
689,1024,503,517,416,192,474,798,FIST
798,1159,572,634,583,275,656,991,FIST
943,1191,610,756,705,321,725,1097,FIST
1009,1198,657,928,825,356,788,1127,FIST
1133,1314,792,1010,890,372,760,1066,FIST
1121,1273,845,959,868,354,719,907,FIST
1211,1344,848,975,794,323,621,753,FIST
1183,1364,841,974,718,296,591,758,FIST
1186,1363,791,849,629,265,509,838,FIST
1062,1238,636,730,480,244,483,821,x
1002,1090,461,719,440,223,428,788,x
790,815,349,587,386,179,333,730,x
646,691,291,415,329,146,243,541,x
426,494,222,269,197,107,208,255,x
239,148,237,200,153,60,147,146,x
235,81,362,172,134,54,141,82,x
226,94,388,213,136,54,133,71,x
203,104,440,331,140,51,88,69,x
160,105,442,366,147,49,45,52,x
157,112,448,396,148,49,53,55,x
158,113,431,392,148,49,55,55,x
150,106,441,372,141,47,53,52,x
123,93,387,276,139,43,52,44,x
120,98,397,252,199,62,55,46,x
72,134,453,253,210,70,49,43,x
63,136,395,250,212,69,47,40,x
60,136,367,248,214,71,45,42,x
60,134,372,236,215,72,46,43,x
56,135,427,349,164,59,43,40,x
46,96,329,341,158,53,39,37,x
45,86,309,338,153,56,39,39,x
49,74,301,354,162,62,40,38,x
50,72,293,355,165,62,42,39,x
53,99,212,256,156,59,38,41,x
61,119,203,223,149,56,41,41,x
64,129,231,216,151,51,40,39,x
82,140,237,183,140,46,44,39,x
83,170,240,190,133,44,42,38,x
87,157,213,213,131,44,44,36,x
85,144,213,232,135,48,44,36,x
98,140,205,250,139,51,44,41,x
114,241,207,259,138,50,43,43,x
135,286,243,303,143,52,53,57,x
147,297,283,275,160,56,55,62,x
184,331,284,264,165,60,64,85,x
263,442,271,254,185,91,83,113,x
373,509,271,272,208,102,137,375,x
501,818,267,314,247,114,222,446,x
593,1028,256,361,288,182,454,686,x
886,1352,380,433,347,211,525,759,x
1050,1490,419,613,512,237,658,936,FIST
1200,1617,557,745,716,373,816,981,FIST
1441,1676,649,920,811,398,831,1012,FIST
1498,1656,651,925,812,384,754,908,FIST
1435,1523,604,1006,824,394,753,911,FIST
1337,1508,653,993,754,381,740,772,FIST
1216,1407,576,910,583,261,584,665,FIST
897,1235,473,753,447,222,552,642,FIST
810,1183,475,804,549,257,576,712,x
692,1061,493,836,575,232,565,669,x
663,892,431,808,584,240,436,630,x
602,814,396,824,582,229,400,612,x
647,803,392,793,576,229,393,565,x
598,805,410,710,457,169,351,497,x
534,780,373,611,430,167,288,453,x
491,711,321,513,387,141,269,442,x
462,667,298,457,349,134,270,398,x
298,527,263,418,326,125,258,350,x
171,266,191,408,318,128,235,171,x
142,128,220,160,193,97,220,127,x
175,117,260,116,147,92,227,79,x
174,73,375,107,146,87,209,71,x
160,85,442,116,145,92,226,75,x
148,111,456,114,141,80,186,69,x
145,132,440,117,135,76,166,64,x
106,147,483,116,138,83,162,56,x
106,148,433,109,133,86,165,56,x
81,143,385,106,129,73,119,45,x
102,129,390,130,138,69,196,61,x
123,114,448,136,136,73,206,65,x
135,110,398,139,138,64,197,66,x
133,109,367,161,142,62,195,66,x
133,119,347,167,146,63,190,67,x
124,114,317,155,139,57,85,50,x
110,134,211,189,173,59,51,47,x
83,132,172,190,173,56,45,48,x
83,133,189,184,169,55,40,50,x
112,162,249,183,169,54,39,50,x
107,201,288,177,172,58,44,51,x
122,214,285,131,139,47,46,52,x
143,214,288,131,139,46,50,54,x
145,222,334,136,141,44,66,56,x
166,253,321,172,136,46,71,60,x
182,253,313,192,138,49,121,77,x
228,312,326,201,141,66,176,182,x
317,494,346,241,178,81,196,239,x
468,624,323,286,256,111,283,323,x
667,729,327,442,408,208,453,487,x
924,1045,403,710,583,251,623,652,x
1177,1235,745,858,755,359,851,956,FIST
1241,1353,881,954,890,408,870,1031,FIST
1357,1492,1062,1037,943,482,910,1137,FIST
1471,1617,1147,1077,941,498,994,1234,FIST
1419,1534,1179,959,871,498,944,1227,FIST
1368,1570,1042,958,769,463,837,1100,FIST
1374,1484,1031,1054,751,439,831,1162,FIST
1386,1408,908,1078,819,416,847,1205,FIST
1248,1267,822,986,770,371,714,1103,FIST
1236,1279,760,971,761,375,760,1073,FIST
1087,1084,715,882,748,336,661,972,x
996,1056,587,722,610,314,658,816,x
740,971,493,535,383,225,552,546,x
712,973,473,525,367,208,494,517,x
528,778,458,478,319,153,317,418,x
457,690,462,398,240,137,292,400,x
422,587,448,165,191,126,246,355,x
426,440,443,130,154,109,237,341,x
178,142,410,111,139,91,203,146,x
161,125,402,107,140,71,146,67,x
158,120,400,135,139,61,128,63,x
133,119,368,150,144,55,118,59,x
79,115,331,148,146,47,69,41,x
82,71,340,138,137,47,80,40,x
140,82,350,148,130,50,86,45,x
140,90,315,137,130,47,87,46,x
139,91,308,128,126,52,86,46,x
141,87,304,132,127,58,115,48,x
125,83,284,135,130,74,164,48,x
51,71,233,137,134,73,165,42,x
51,57,223,172,138,74,164,43,x
52,56,228,171,139,71,164,42,x
58,69,242,180,138,69,145,41,x
59,74,276,175,139,49,63,41,x
65,75,312,169,140,46,50,41,x
68,78,325,132,132,43,42,38,x
114,110,313,131,133,43,63,45,x
138,134,321,147,144,44,65,61,x
143,147,323,227,142,45,65,74,x
143,194,321,241,141,46,66,74,x
174,220,330,242,150,49,69,77,x
221,298,343,254,150,53,220,122,x
281,316,327,247,162,56,226,131,x
323,409,292,196,222,70,247,274,x
379,586,273,207,257,99,303,421,x
421,812,272,328,339,123,404,514,x
619,996,435,629,572,208,476,722,x
799,1311,521,709,690,316,578,901,x
941,1369,646,852,764,365,700,944,x
1101,1467,770,959,804,370,721,948,x
1255,1590,792,1082,811,379,706,994,FIST
1183,1624,745,974,715,357,683,891,FIST
1189,1515,767,1039,630,298,685,791,FIST
1215,1647,694,1055,627,295,640,807,FIST
1205,1622,576,1014,669,349,664,861,FIST
1177,1560,625,1057,712,364,733,862,FIST
1317,1556,660,1091,710,363,784,963,FIST
1318,1525,644,1035,788,371,781,948,FIST
1238,1374,652,963,728,326,718,920,FIST
1306,1406,672,917,638,280,706,871,x
1271,1320,629,735,561,248,637,790,x
1102,1132,589,671,564,234,507,615,x
956,989,532,581,404,191,442,535,x
890,878,522,468,360,195,462,418,x
557,542,489,431,349,160,425,261,x
274,155,444,287,306,143,398,159,x
270,105,401,165,166,125,393,129,x
253,89,386,132,162,101,329,107,x
233,87,378,145,160,80,339,139,x
144,87,344,160,152,63,313,136,x
77,126,360,161,147,54,263,127,x
59,130,454,157,145,51,262,124,x
65,185,443,154,145,53,270,125,x
72,188,433,167,139,55,262,92,x
72,186,444,170,139,61,233,69,x
72,161,437,166,141,61,225,66,x
68,153,334,170,152,63,225,62,x
60,77,333,169,157,62,217,57,x
46,61,327,157,157,55,128,44,x
45,63,328,146,159,46,112,44,x
45,67,314,152,160,43,111,41,x
47,70,319,170,161,46,112,44,x
52,88,314,180,157,45,102,47,x
57,89,360,183,157,47,118,47,x
59,89,355,184,160,47,87,43,x
71,99,376,181,161,53,117,51,x
87,130,370,156,145,51,123,53,x
96,168,380,152,144,53,136,54,x
127,269,332,133,146,55,136,68,x
208,377,319,135,154,64,207,91,x
262,464,304,173,148,65,257,132,x
364,610,402,261,161,73,267,222,x
401,707,397,324,305,113,360,287,x
721,948,407,506,432,145,547,543,x
806,1042,473,694,555,205,722,609,x
1135,1247,513,861,645,247,838,777,x
1310,1397,590,1087,855,375,913,856,FIST
1393,1476,706,1233,845,385,933,881,FIST
1352,1503,987,1233,804,383,872,841,FIST
1365,1557,976,1207,768,390,776,822,FIST
1177,1434,997,1215,733,386,677,726,FIST
1080,1445,998,1074,532,296,635,700,FIST
1001,1404,944,948,570,279,579,661,x
915,1262,635,929,580,274,538,603,x
873,1144,622,866,531,241,485,628,x
817,1132,558,745,526,216,437,596,x
645,872,387,662,468,177,378,495,x
578,733,316,572,372,173,349,471,x
499,628,310,460,318,157,326,385,x
371,507,311,398,296,140,284,266,x
225,339,317,248,196,136,310,135,x
172,214,337,154,183,128,256,73,x
184,164,405,112,151,118,272,74,x
175,165,427,126,154,120,270,75,x
156,163,397,123,155,104,255,69,x
137,153,387,127,157,78,178,64,x
132,150,377,131,157,77,164,66,x
73,134,328,129,159,88,113,57,x
66,142,317,160,174,93,134,56,x
65,143,327,162,180,88,140,51,x
74,164,332,168,187,101,142,56,x
69,159,339,167,189,102,159,53,x
65,152,327,174,193,86,153,50,x
67,150,319,140,175,80,143,53,x
80,152,314,141,168,79,142,60,x
74,143,330,139,161,69,138,52,x
75,138,344,134,156,63,125,52,x
82,148,334,129,147,63,125,54,x
91,142,362,151,155,65,108,52,x
90,162,397,151,155,68,145,51,x
133,160,377,148,157,62,145,78,x
148,170,362,153,162,68,148,92,x
209,249,380,195,211,81,168,118,x
252,300,375,262,260,96,176,142,x
459,403,348,338,356,114,184,246,x
701,844,360,465,440,139,435,377,x
840,1070,411,848,573,251,639,592,x
868,1138,509,993,676,277,954,916,FIST
1003,1263,666,1140,784,319,1197,1148,FIST
1016,1402,700,1252,779,328,1239,1221,FIST
997,1395,730,1334,772,326,1194,1198,FIST
1076,1342,699,1177,737,269,1135,1166,FIST
1075,1352,633,1105,652,254,951,1054,FIST
972,1269,461,1061,568,245,676,952,x
1016,1279,409,942,536,240,636,943,x
902,1152,345,811,519,253,629,1017,x
662,1040,351,814,508,239,574,969,x
642,960,339,798,510,247,507,846,x
606,927,301,667,450,209,446,672,x
348,705,276,607,430,192,375,515,x
303,545,266,539,384,170,350,311,x
288,509,266,421,283,170,353,242,x
253,462,272,295,223,158,375,195,x
222,414,297,154,169,181,405,146,x
212,247,409,151,171,209,434,123,x
230,190,472,157,174,228,459,106,x
255,185,489,158,164,224,458,85,x
215,191,584,197,166,230,397,98,x
222,170,626,213,164,206,345,97,x
206,156,588,211,163,189,308,87,x
174,145,533,190,157,163,241,79,x
145,132,529,182,157,163,207,78,x
132,90,443,168,152,127,205,60,x
106,91,387,154,146,116,199,57,x
90,94,363,151,142,91,174,55,x
93,95,371,152,151,80,163,60,x
74,91,350,158,149,65,146,56,x
71,86,309,167,159,58,81,51,x
57,82,277,166,159,54,56,48,x
59,94,295,169,162,50,46,49,x
63,113,299,166,146,45,40,42,x
63,124,315,156,145,40,37,43,x
79,147,308,151,138,41,40,42,x
164,227,370,202,163,48,48,59,x
184,248,344,216,158,48,57,65,x
205,280,344,218,164,52,71,96,x
263,396,345,262,174,64,88,128,x
347,526,339,276,206,75,144,234,x
405,722,285,275,240,93,164,411,x
483,809,317,359,360,119,322,569,x
745,995,346,610,468,145,551,803,x
951,1198,480,719,529,179,633,986,x
1069,1348,548,835,567,205,685,1024,x
1068,1360,656,865,605,225,712,993,x
1078,1396,687,869,592,237,672,967,x
975,1375,738,828,614,225,555,911,x
852,1305,673,738,569,214,505,807,x
696,1145,635,640,559,196,433,784,x
703,1084,518,643,513,167,401,782,x
751,1095,458,760,550,149,426,772,x
676,996,343,647,452,148,404,670,x
683,942,321,652,466,131,354,593,x
649,909,295,713,451,126,340,532,x
593,812,314,663,436,123,324,481,x
436,622,298,456,308,105,267,381,x
446,545,282,439,277,111,216,271,x
218,258,259,403,228,110,217,118,x
210,101,256,129,155,106,242,84,x
207,93,245,113,141,104,245,86,x
216,99,358,174,143,102,236,139,x
47,59,236,153,181,53,35,37,x
49,59,230,185,187,57,34,37,x
48,65,222,194,179,59,37,36,x
47,85,222,192,173,59,36,35,x
42,83,212,185,159,53,36,37,x
40,86,205,172,168,53,36,38,x
40,87,202,164,183,56,35,36,x
43,85,232,168,185,54,35,35,x
44,64,232,174,186,56,36,35,x
45,68,232,176,189,58,35,38,x
44,60,182,186,207,60,35,38,x
41,59,201,179,192,57,38,39,x
41,83,176,177,189,56,36,39,x
42,84,185,185,200,64,37,37,x
41,85,186,197,193,62,40,34,x
42,87,177,182,163,61,42,31,x
47,85,158,169,156,57,40,32,x
43,59,148,153,179,64,41,34,x
46,66,132,138,159,54,40,34,x
48,83,125,124,167,53,38,35,x
49,93,121,115,158,52,37,36,x
49,102,112,116,166,56,37,36,x
49,100,106,111,149,49,37,34,x
44,94,101,107,151,49,36,34,x
45,85,100,92,128,46,34,34,x
43,76,102,89,129,42,32,33,x
40,64,100,75,121,36,30,32,x
44,95,100,71,115,36,32,32,x
46,112,103,74,112,37,34,35,x
48,106,107,76,111,35,35,35,x
48,103,104,79,113,35,36,35,x
48,104,102,79,108,36,38,33,x
47,77,101,80,111,36,37,32,x
44,151,98,78,112,35,35,32,x
39,162,95,79,111,35,35,31,x
36,162,95,79,111,37,36,30,x
38,162,98,80,116,36,35,31,x
37,162,97,79,116,37,34,34,x
37,76,98,76,114,37,35,32,x
39,69,97,77,117,39,39,33,x
40,69,95,77,119,38,40,33,x
37,68,91,77,117,38,40,33,x
37,75,91,80,116,39,41,32,x
38,75,89,79,114,39,41,33,x
37,103,91,78,113,38,36,34,x
39,104,93,80,111,40,35,35,x
39,105,93,80,112,41,35,34,x
38,100,92,78,111,39,36,34,x
38,106,97,79,114,40,35,35,x
38,60,95,77,116,39,36,32,x
35,59,94,73,118,38,36,33,x
36,58,95,72,115,39,34,35,x
35,58,96,70,118,38,34,34,x
35,46,93,69,118,38,35,32,x
36,46,91,69,115,38,35,36,x
37,45,90,70,115,38,33,35,x
38,44,91,72,119,35,35,33,x
38,55,90,70,118,35,35,33,x
41,56,88,71,117,35,36,34,x
40,58,89,71,116,34,36,32,x
41,57,90,71,117,34,35,33,x
40,57,89,70,116,33,35,34,x
42,46,88,70,116,34,34,36,x
39,45,87,71,116,33,31,35,x
38,42,87,72,119,35,32,35,x
36,41,86,70,120,36,34,34,x
36,41,86,72,120,35,33,35,x
34,43,134,83,121,37,34,33,x
38,50,298,174,123,39,36,35,x
74,84,471,219,141,52,50,47,x
79,89,510,227,143,71,87,54,x
84,95,585,233,147,82,166,57,x
178,110,653,290,148,85,176,76,x
180,120,646,260,143,85,176,76,x
169,126,538,225,126,77,173,70,x
168,131,508,218,121,61,157,65,x
165,126,419,210,115,49,69,63,x
51,114,288,112,114,41,36,39,x
42,100,151,79,118,39,33,38,x
40,66,175,124,162,44,33,36,x
36,52,197,142,171,49,37,35,x
42,68,237,146,173,49,38,35,x
45,67,233,145,173,50,37,35,x
50,69,231,145,173,49,35,35,x
50,68,202,108,134,45,35,37,x
52,68,162,87,124,42,32,38,x
47,53,105,101,174,51,32,39,x
44,53,104,105,183,60,39,40,x
40,53,104,108,186,60,42,39,x
40,54,105,107,187,60,42,37,x
41,53,110,106,190,57,42,35,x
47,54,114,90,153,52,42,32,x
51,54,182,176,208,71,40,33,x
56,57,215,190,214,79,42,37,x
56,59,239,219,221,79,41,38,x
56,66,381,376,258,89,43,39,x
52,66,394,470,354,103,45,42,x
59,94,477,702,505,134,50,46,x
59,117,642,750,537,140,54,48,x
62,122,692,889,558,152,59,49,x
62,130,702,981,549,154,66,50,x
69,142,733,1107,494,147,66,52,x
70,146,719,1140,310,106,64,49,x
72,141,679,1172,239,96,60,47,x
72,150,644,1096,179,76,55,46,x
78,154,670,1038,161,62,47,50,x
81,163,722,941,152,57,49,51,x
78,147,736,763,143,60,49,51,x
73,138,697,733,156,57,49,51,x
74,128,703,725,161,60,49,51,x
68,115,647,779,172,65,49,49,x
63,93,630,705,171,62,46,48,x
75,92,564,670,168,57,40,49,x
101,86,485,646,167,54,41,50,x
146,83,445,621,159,50,42,51,x
167,84,404,426,141,44,43,52,x
218,77,237,377,141,43,48,62,x
216,74,201,351,141,55,69,65,x
218,89,196,223,132,67,78,66,x
228,92,191,163,127,68,82,68,x
213,172,160,107,137,74,85,72,x
161,216,171,121,142,75,83,64,x
159,227,172,124,145,70,68,59,x
158,371,220,146,161,67,64,66,x
101,409,237,158,170,69,62,65,x
100,387,202,147,167,61,56,58,x
113,385,201,138,160,64,59,61,x
121,488,212,134,153,63,63,64,x
169,421,171,114,141,75,71,55,x
264,462,148,113,142,108,101,61,x
373,484,156,112,135,129,118,122,x
386,541,160,106,131,135,165,178,x
402,536,196,111,136,143,193,219,x
387,549,239,112,137,138,203,243,x
331,544,255,96,128,113,193,243,x
208,527,250,90,125,88,184,220,x
182,456,241,93,130,79,149,180,x
166,433,217,88,131,63,122,161,x
150,433,168,92,138,66,116,132,x
184,365,141,93,140,69,121,129,x
179,357,141,97,147,71,118,126,x
181,353,141,98,150,66,108,122,x
154,283,136,105,156,63,91,70,x
152,204,233,126,152,55,64,42,x
103,186,324,214,155,52,40,42,x
95,202,549,281,187,56,44,44,x
74,206,699,343,210,63,46,43,x
71,139,745,468,216,68,46,42,x
64,154,760,506,241,70,49,47,x
71,251,760,588,242,74,56,52,x
80,254,679,648,226,75,56,59,x
82,335,584,665,222,76,59,57,x
83,353,609,659,245,80,64,58,x
88,354,608,731,230,83,64,57,x
92,318,577,732,253,85,63,60,x
90,362,519,855,254,88,67,57,x
86,289,470,917,237,83,63,59,x
84,269,360,1140,199,80,59,59,x
80,278,275,1196,191,81,62,63,x
75,261,283,1349,170,79,63,73,x
73,266,257,1245,158,70,55,69,x
78,283,225,1207,162,72,57,67,x
83,277,201,952,166,66,56,68,x
75,259,202,914,187,58,49,63,x
69,247,155,678,195,52,40,42,x
65,138,147,660,194,51,40,41,x
60,77,135,617,193,46,36,40,x
53,99,165,663,202,49,36,35,x
51,94,163,542,176,45,34,35,x
65,107,156,417,152,44,34,32,x
85,107,161,594,157,47,35,43,x
96,133,204,951,167,57,41,50,x
99,213,202,1104,200,66,45,55,x
124,218,223,1166,216,78,53,75,x
126,241,248,1276,241,80,58,93,x
119,270,312,1217,247,81,62,94,x
204,269,508,1149,243,82,75,102,x
216,210,754,1101,234,80,100,106,x
241,211,911,1032,224,81,124,97,x
247,182,989,925,204,86,129,84,x
256,137,979,930,191,84,129,80,x
191,115,888,751,198,79,126,67,x
195,95,687,634,177,76,113,61,x
165,101,445,736,194,92,121,55,x
196,124,200,698,185,110,138,102,x
195,132,144,680,186,113,152,112,x
196,144,114,627,172,113,160,116,x
202,156,102,548,163,113,169,116,x
248,140,134,331,140,98,163,124,x
242,144,262,338,142,80,184,97,x
249,203,302,348,137,84,206,104,x
262,207,537,381,142,128,252,113,x
249,201,566,385,139,133,252,119,x
217,208,733,507,146,151,252,124,x
202,190,751,515,152,149,231,116,x
188,122,823,640,179,153,223,106,x
247,112,815,655,179,135,189,96,x
246,114,832,693,182,165,203,89,x
248,107,839,746,180,157,232,84,x
256,102,795,738,178,176,255,93,x
259,95,714,652,151,194,259,89,x
185,79,573,602,149,188,254,85,x
181,161,525,672,155,159,247,100,x
147,181,195,529,146,165,262,133,x
142,294,180,539,151,148,282,168,x
155,373,141,517,215,135,285,225,x
178,388,135,523,291,161,293,332,x
185,370,121,409,329,165,365,450,x
196,380,114,434,347,150,399,481,x
199,375,125,418,362,150,374,494,x
177,303,227,425,366,136,378,496,x
158,287,307,534,369,117,554,579,x
147,276,394,513,356,123,552,536,x
145,288,433,486,347,123,547,545,x
108,232,433,541,401,130,609,609,x
113,244,389,576,429,152,735,740,x
161,263,334,662,449,174,711,958,x
189,346,253,742,473,193,852,1047,x
284,435,303,836,590,242,954,1082,x
295,425,330,817,593,272,987,1156,x
335,453,371,804,600,286,961,1249,x
383,486,404,728,576,290,1175,1286,x
406,477,457,705,600,308,1148,1395,x
505,628,507,632,516,277,1160,1501,x
547,744,617,682,515,259,1114,1556,x
614,784,597,679,466,234,1214,1529,x
620,780,614,747,577,239,1018,1475,x
678,839,860,789,542,196,989,1438,x
783,744,912,765,509,192,873,1311,x
767,630,895,708,453,174,959,1270,x
820,637,1002,727,443,177,780,1172,x
800,634,1032,584,233,221,762,973,x
858,516,825,437,167,256,709,742,x
676,397,726,433,153,304,729,686,x
699,379,696,440,144,315,700,393,x
557,198,620,355,152,336,769,240,x
548,86,546,381,137,308,765,216,x
365,69,599,488,132,316,786,189,x
345,67,586,555,131,272,752,179,x
263,76,589,651,145,266,671,162,x
246,74,580,700,138,241,563,182,x
218,78,585,684,134,207,441,148,x
118,77,505,642,138,149,356,139,x
109,85,500,678,162,148,483,140,x
63,82,420,596,206,141,502,149,x
61,98,282,571,325,134,525,227,x
86,131,240,580,369,149,618,333,x
121,207,229,648,531,163,639,462,x
193,350,191,628,578,177,602,563,x
210,422,264,645,578,177,638,623,x
229,488,437,645,544,177,677,638,x
236,515,521,683,597,181,640,674,x
225,501,519,650,516,178,668,675,x
180,433,569,585,466,166,722,634,x
165,365,617,543,466,165,696,576,x
189,287,545,612,518,170,629,548,x
187,225,510,646,446,166,580,456,x
185,210,510,574,384,151,530,368,x
181,185,459,614,406,144,386,491,x
199,243,400,641,396,136,331,511,x
210,239,414,546,292,120,412,588,x
294,426,440,425,267,119,504,675,x
330,446,588,438,265,133,567,678,x
332,506,609,358,221,173,624,565,x
336,534,591,293,193,186,630,548,x
351,527,573,259,182,252,676,446,x
393,389,569,244,161,343,808,321,x
408,361,486,244,164,359,839,280,x
405,261,535,272,145,342,793,254,x
391,112,528,291,143,348,813,248,x
348,111,674,400,146,313,735,249,x
208,109,658,440,188,201,652,194,x
80,106,652,580,311,175,538,165,x
114,181,628,618,335,178,547,164,x
145,343,690,645,357,215,508,182,x
259,566,573,675,424,211,516,205,x
331,632,557,706,481,229,372,265,x
404,730,504,732,584,236,364,321,x
572,861,468,711,596,247,461,388,x
635,861,384,713,605,205,614,423,x
660,824,336,777,740,253,701,426,x
630,795,444,749,700,242,706,461,x
609,750,550,625,573,233,772,450,x
455,625,549,593,552,220,823,429,x
358,562,563,606,580,218,771,452,x
289,467,577,700,534,188,792,651,x
294,448,490,732,575,190,879,713,x
252,381,465,754,596,181,888,774,x
239,300,481,766,600,174,795,823,x
253,311,507,722,552,171,743,802,x
233,286,526,461,384,119,677,651,x
226,260,567,399,361,129,714,565,x
217,239,533,339,327,139,755,511,x
279,236,573,346,325,192,991,511,x
383,204,602,370,328,192,1073,496,x
360,139,754,494,302,221,1048,476,x
354,147,780,529,240,235,1075,440,x
354,150,798,656,229,263,1054,375,x
304,158,789,816,272,255,885,200,x
109,150,736,821,394,266,778,200,x
116,164,591,771,429,254,782,232,x
202,283,519,756,512,246,692,379,x
263,444,577,710,565,234,820,469,x
381,658,640,691,619,230,791,558,x
443,837,688,818,623,227,886,728,x
481,853,662,850,651,225,1007,766,x
482,828,690,883,602,218,1069,783,x
499,784,622,1006,694,218,905,743,x
422,651,694,929,692,218,990,727,x
360,397,649,922,676,211,953,659,x
468,389,640,888,645,233,929,822,x
461,399,608,859,656,234,872,887,x
411,341,615,691,522,218,952,917,x
408,275,495,657,466,255,1000,947,x
421,296,523,475,393,254,1002,1101,x
250,314,563,439,362,230,969,1038,x
296,362,608,402,312,222,923,1045,x
310,393,568,342,268,208,919,1023,x
334,383,464,288,186,130,794,963,x
326,363,419,278,162,119,726,695,x
335,296,352,266,136,103,625,549,x
257,180,237,229,132,88,538,225,x
263,59,254,176,130,85,366,153,x
225,68,304,165,128,68,168,114,x
223,115,312,182,135,60,178,93,x
167,119,318,206,188,71,176,84,x
165,129,363,253,214,81,165,75,x
116,149,345,282,241,83,164,69,x
122,141,329,294,242,80,157,67,x
102,112,310,291,239,77,122,60,x
127,132,331,271,202,67,104,50,x
127,156,282,242,182,64,98,50,x
125,162,305,242,154,60,91,49,x
149,178,350,234,161,63,77,41,x
144,191,373,232,160,63,69,42,x
171,178,364,224,161,63,70,43,x
172,154,370,203,148,50,69,41,x
178,141,363,231,174,53,68,43,x
152,142,401,325,210,67,43,45,x
147,129,427,328,210,67,43,43,x
149,133,412,329,207,67,41,41,x
176,156,450,326,208,67,42,49,x
173,150,454,288,177,62,46,49,x
172,134,383,164,124,43,45,47,x
173,157,392,176,143,45,47,45,x
148,170,410,189,177,53,47,46,x
115,151,390,195,179,55,46,39,x